Time (s)	X (km)	Y (km)	Z (km)	vx (km)	vy (km)	vz (km)
1699566.184489756590	-74356734.367751285434	116182833.856565371156	50373625.349768847227	-25.215162408266	-13.408364247693	-5.923765163872
1699566.184497662354	-74356734.367950633168	116182833.856459364295	50373625.349722012877	-25.215162408254	-13.408364247712	-5.923765163880
1699566.184513473650	-74356734.368349313736	116182833.856247365475	50373625.349628351629	-25.215162408229	-13.408364247749	-5.923765163896
1699566.184545096476	-74356734.369146689773	116182833.855823352933	50373625.349441029131	-25.215162408181	-13.408364247824	-5.923765163929
1699566.184608342126	-74356734.370741441846	116182833.854975327849	50373625.349066376686	-25.215162408083	-13.408364247973	-5.923765163995
1699566.184734833194	-74356734.373930931091	116182833.853279292583	50373625.348317071795	-25.215162407889	-13.408364248272	-5.923765164128
1699566.184987815330	-74356734.380309924483	116182833.849887222052	50373625.346818462014	-25.215162407499	-13.408364248870	-5.923765164392
1699566.185493779834	-74356734.393067896366	116182833.843103066087	50373625.343821249902	-25.215162406721	-13.408364250064	-5.923765164920
1699566.186505708611	-74356734.418583840132	116182833.829534754157	50373625.337826818228	-25.215162405164	-13.408364252454	-5.923765165977
1699566.188529566396	-74356734.469615742564	116182833.802398130298	50373625.325837962329	-25.215162402049	-13.408364257234	-5.923765168090
1699566.192577281734	-74356734.571679547429	116182833.748124882579	50373625.301860243082	-25.215162395820	-13.408364266794	-5.923765172316
1699566.200672712643	-74356734.775807157159	116182833.639578402042	50373625.253904812038	-25.215162383362	-13.408364285913	-5.923765180769
1699566.216863574227	-74356735.184062361717	116182833.422485426068	50373625.157993949950	-25.215162358447	-13.408364324152	-5.923765197674
1699566.249245297397	-74356736.000572770834	116182832.988299489021	50373624.966172225773	-25.215162308615	-13.408364400629	-5.923765231485
1699566.314008743968	-74356737.633593589067	116182832.119927600026	50373624.582528769970	-25.215162208953	-13.408364553583	-5.923765299107
1699566.443535636878	-74356740.899635195732	116182830.383183777332	50373623.815241850913	-25.215162009628	-13.408364859491	-5.923765434350
1699566.702589422697	-74356747.431718319654	116182826.909696012735	50373622.280667953193	-25.215161610978	-13.408365471308	-5.923765704836
1699567.220696994569	-74356760.495884269476	116182819.962720021605	50373619.211519949138	-25.215160813680	-13.408366694943	-5.923766245809
1699568.256912138313	-74356786.624214932323	116182806.068766131997	50373613.073223099113	-25.215159219090	-13.408369142217	-5.923767327755
1699570.329342425568	-74356838.880871295929	116182778.280850738287	50373600.796626031399	-25.215156029932	-13.408374036777	-5.923769491651
1699574.474203000311	-74356943.394164189696	116182722.704989537597	50373576.243418440223	-25.215149651708	-13.408383825956	-5.923773819454
1699582.763924149796	-74357152.420670673251	116182611.553145408630	50373527.136949449778	-25.215136895627	-13.408403404539	-5.923782475109
1699599.343366448767	-74357570.473366409540	116182389.248970240355	50373428.923796206713	-25.215111384930	-13.408442562609	-5.923799786611
1699632.502251046710	-74358406.577489107847	116181944.638672187924	50373232.496628664434	-25.215060369402	-13.408520882368	-5.923834410381
1699698.820020242594	-74360078.780660316348	116181055.410284683108	50372839.638849236071	-25.214958361800	-13.408677536367	-5.923903660992
1699776.141391720157	-74362028.431225821376	116180018.625885859132	50372381.591372005641	-25.214839468335	-13.408860207157	-5.923984407003
1699853.462763197720	-74363978.072599962354	116178981.827361673117	50371923.537651166320	-25.214720617368	-13.409042904212	-5.924065158587
1699930.784134675283	-74365927.704786032438	116177945.014710083604	50371465.477686293423	-25.214601808890	-13.409225627543	-5.924145915751
1700008.105506152846	-74367877.327787309885	116176908.187929049134	50371007.411476947367	-25.214483042892	-13.409408377163	-5.924226678498
1700085.426877630409	-74369826.941607072949	116175871.347016558051	50370549.339022696018	-25.214364319366	-13.409591153082	-5.924307446835
1700162.748249107972	-74371776.546248614788	116174834.491970553994	50370091.260323114693	-25.214245638303	-13.409773955314	-5.924388220766
1700240.069620585535	-74373726.141715213656	116173797.622789025307	50369633.175377763808	-25.214126999694	-13.409956783868	-5.924469000296
1700317.390992063098	-74375675.728010147810	116172760.739469915628	50369175.084186211228	-25.214008403531	-13.410139638758	-5.924549785431
1700339.398204531521	-74376230.617678925395	116172465.619104936719	50369044.701107285917	-25.213974656444	-13.410191687741	-5.924572779525
1700339.398204531521	-74376230.617678940296	116172465.619105190039	50369044.701107390225	-25.213959138647	-13.410402157732	-5.924652107832
1700339.398212437285	-74376230.617878273129	116172465.618999168277	50369044.701060548425	-25.213959138635	-13.410402157751	-5.924652107841
1700339.398228248581	-74376230.618276938796	116172465.618787124753	50369044.700966872275	-25.213959138611	-13.410402157788	-5.924652107857
1700339.398259871406	-74376230.619074270129	116172465.618363052607	50369044.700779519975	-25.213959138563	-13.410402157863	-5.924652107890
1700339.398323117057	-74376230.620668947697	116172465.617514908314	50369044.700404815376	-25.213959138466	-13.410402158013	-5.924652107956
1700339.398449608125	-74376230.623858287930	116172465.615818604827	50369044.699655398726	-25.213959138272	-13.410402158312	-5.924652108088
1700339.398702590261	-74376230.630236968398	116172465.612426012754	50369044.698156565428	-25.213959137884	-13.410402158910	-5.924652108353
1700339.399208554765	-74376230.642994329333	116172465.605640828609	50369044.695158898830	-25.213959137108	-13.410402160107	-5.924652108881
1700339.400220483541	-74376230.668509066105	116172465.592070460320	50369044.689163573086	-25.213959135556	-13.410402162500	-5.924652109939
1700339.402244341327	-74376230.719538524747	116172465.564929708838	50369044.677172921598	-25.213959132453	-13.410402167287	-5.924652112053
1700339.406292056665	-74376230.821597456932	116172465.510648220778	50369044.653191618621	-25.213959126246	-13.410402176860	-5.924652116283
1700339.414387487574	-74376231.025715321302	116172465.402085244656	50369044.605229005218	-25.213959113833	-13.410402196007	-5.924652124741
1700339.430578349158	-74376231.433951050043	116172465.184959277511	50369044.509303785861	-25.213959089006	-13.410402234301	-5.924652141658
1700339.462960072327	-74376232.250422492623	116172464.750707343221	50369044.317453339696	-25.213959039353	-13.410402310888	-5.924652175493
1700339.527723518899	-74376233.883365377784	116172463.882203459740	50369043.933752439916	-25.213958940046	-13.410402464062	-5.924652243161
1700339.657250411808	-74376237.149251118302	116172462.145195677876	50369043.166350632906	-25.213958741433	-13.410402770411	-5.924652378498
1700339.916304197628	-74376243.681022539735	116172458.671179994941	50369041.631546966732	-25.213958344206	-13.410403383109	-5.924652649171
1700340.434411769500	-74376256.744565069675	116172451.723148137331	50369038.561939425766	-25.213957549754	-13.410404608506	-5.924653190518
1700341.470626913244	-74376282.871648892760	116172437.827082529664	50369032.422723509371	-25.213955960856	-13.410407059302	-5.924654273213
1700343.543057200499	-74376335.125811591744	116172410.034943699837	50369020.144288308918	-25.213952783084	-13.410411960910	-5.924656438606
1700347.687917775242	-74376439.634117245674	116172354.450635552406	50368995.587404444814	-25.213946427630	-13.410421764183	-5.924660769404
1700355.977638924727	-74376648.650649517775	116172243.281897366047	50368946.473582856357	-25.213933717088	-13.410441370956	-5.924669431048
1700372.557081223698	-74377066.683397978544	116172020.943933382630	50368848.245724275708	-25.213908297466	-13.410480585410	-5.924686754530
1700405.715965821641	-74377902.747630670667	116171576.266054898500	50368651.789145469666	-25.213857464074	-13.410559017956	-5.924721402270
1700472.033735017525	-74379574.871039956808	116170686.902495309711	50368258.872541122139	-25.213755820688	-13.410715897601	-5.924790700851
1700549.355106495088	-74381524.428639754653	116169649.960477426648	50367800.756474591792	-25.213637351775	-13.410898831597	-5.924871502844
1700626.676477972651	-74383473.977081000805	116168613.004313811660	50367342.634160123765	-25.213518925258	-13.411081791989	-5.924952310468
1700703.997849450214	-74385423.516366988420	116167576.034002438188	50366884.505597278476	-25.213400541127	-13.411264778789	-5.925033123729
1700781.319220927777	-74387373.046500995755	116166539.049541249871	50366426.370785623789	-25.213282199375	-13.411447792008	-5.925113942631
1700858.640592405340	-74389322.567486286163	116165502.050928205252	50365968.229724720120	-25.213163899991	-13.411630831658	-5.925194767180
1700935.961963882903	-74391272.079326152802	116164465.038161262870	50365510.082414135337	-25.213045642968	-13.411813897751	-5.925275597380
1701013.283335360466	-74393221.582023859024	116163428.011238381267	50365051.928853429854	-25.212927428297	-13.411996990297	-5.925356433237
1701090.604706838029	-74395171.075582683086	116162390.970157504082	50364593.769042164087	-25.212809255969	-13.412180109309	-5.925437274756
1701112.611919306219	-74395725.938862875104	116162095.804886624217	50364463.366431899369	-25.212775629495	-13.412232233491	-5.925460284909
1701112.611919306219	-74395725.938862919807	116162095.804887041450	50364463.366432078183	-25.212743630402	-13.412792688302	-5.925670826080
1701112.611927211983	-74395725.939062237740	116162095.804781004786	50364463.366385228932	-25.212743630390	-13.412792688321	-5.925670826088
1701112.611943023279	-74395725.939460888505	116162095.804568931460	50364463.366291537881	-25.212743630366	-13.412792688358	-5.925670826105
1701112.611974646104	-74395725.940258190036	116162095.804144784808	50364463.366104148328	-25.212743630317	-13.412792688433	-5.925670826138
1701112.612037891755	-74395725.941852778196	116162095.803296491504	50364463.365729376674	-25.212743630221	-13.412792688583	-5.925670826204
1701112.612164382823	-74395725.945041969419	116162095.801599889994	50364463.364979833364	-25.212743630027	-13.412792688882	-5.925670826336
1701112.612417364959	-74395725.951420351863	116162095.798206686974	50364463.363480746746	-25.212743629641	-13.412792689482	-5.925670826601
1701112.612923329463	-74395725.964177101851	116162095.791420295835	50364463.360482566059	-25.212743628868	-13.412792690680	-5.925670827130
1701112.613935258240	-74395725.989690601826	116162095.777847498655	50364463.354486212134	-25.212743627322	-13.412792693077	-5.925670828188
1701112.615959116025	-74395726.040717601776	116162095.750701919198	50364463.342493496835	-25.212743624229	-13.412792697870	-5.925670830304
1701112.620006831363	-74395726.142771616578	116162095.696410745382	50364463.318508066237	-25.212743618045	-13.412792707458	-5.925670834536
1701112.628102262272	-74395726.346879631281	116162095.587828412652	50364463.270537205040	-25.212743605676	-13.412792726632	-5.925670843001
1701112.644293123856	-74395726.755095675588	116162095.370663747191	50364463.174595490098	-25.212743580938	-13.412792764981	-5.925670859929
1701112.676674847025	-74395727.571527764201	116162094.936334401369	50364462.982712052763	-25.212743531462	-13.412792841679	-5.925670893787
1701112.741438293597	-74395729.204391926527	116162094.067675709724	50364462.598945178092	-25.212743432510	-13.412792995075	-5.925670961503
1701112.870965186507	-74395732.470120236278	116162092.330358281732	50364461.831411421299	-25.212743234606	-13.412793301866	-5.925671096934
1701113.130018972326	-74395739.001576766372	116162088.855723321438	50364460.296343855560	-25.212742838800	-13.412793915449	-5.925671367797
1701113.648126544198	-74395752.064489528537	116162081.906452909112	50364457.226208508015	-25.212742047187	-13.412795142616	-5.925671909522
1701114.684341687942	-74395778.190313830972	116162068.007910192013	50364451.085936978459	-25.212740463968	-13.412797596954	-5.925672992973
1701116.756771975197	-74395830.441957518458	116162040.210817128420	50364438.805390551686	-25.212737297554	-13.412802505644	-5.925675159878
1701120.901632549940	-74395934.945225194097	116161984.616600483656	50364414.244284220040	-25.212730964815	-13.412812323082	-5.925679493701
1701129.191353699425	-74396143.951681807637	116161873.428045108914	50364365.122017666698	-25.212718299702	-13.412831958185	-5.925688161397
1701145.770795998396	-74396561.964280083776	116161651.050446048379	50364266.877269007266	-25.212692970934	-13.412871229306	-5.925705496983
1701178.929680596339	-74397397.988216906786	116161206.293294593692	50364070.386909432709	-25.212642319231	-13.412949775206	-5.925740168941
1701245.247449792223	-74399070.031052544713	116160316.771177798510	50363677.402741149068	-25.212541039153	-13.413106881643	-5.925809515996
1701322.568821269786	-74401019.494740128517	116159279.644275531173	50363219.207896247506	-25.212422993710	-13.413290080205	-5.925890374569
1701399.890192747349	-74402968.949301913381	116158242.503207072616	50362761.006799027324	-25.212304990535	-13.413473305317	-5.925971238841
1701477.211564224912	-74404918.394741162658	116157205.347970366478	50362302.799449048936	-25.212187029617	-13.413656556990	-5.926052108818
1701554.532935702475	-74406867.831061154604	116156168.178563356400	50361844.585845872760	-25.212069110949	-13.413839835235	-5.926132984504
1701631.854307180038	-74408817.258265137672	116155130.994984000921	50361386.365989059210	-25.211951234521	-13.414023140065	-5.926213865905
1701709.175678657601	-74410766.676356390119	116154093.797230228782	50360928.139878161252	-25.211833400324	-13.414206471491	-5.926294753025
1701786.497050135164	-74412716.085338175297	116153056.585299998522	50360469.907512739301	-25.211715608351	-13.414389829524	-5.926375645870
1701863.818421612727	-74414665.485213756561	116152019.359191238880	50360011.668892353773	-25.211597858592	-13.414573214176	-5.926456544444
1701885.825634081149	-74415220.321835801005	116151724.141253963113	50359881.243850626051	-25.211564352366	-13.414625413992	-5.926479570849
1701885.825634081149	-74415220.321835815907	116151724.141254484653	50359881.243850857019	-25.211528526665	-13.415605952355	-5.926846492157
1701885.825641986914	-74415220.322035133839	116151724.141148418188	50359881.243804000318	-25.211528526653	-13.415605952374	-5.926846492165
1701885.825657798210	-74415220.322433769703	116151724.140936300159	50359881.243710286915	-25.211528526629	-13.415605952411	-5.926846492182
1701885.825689421035	-74415220.323231026530	116151724.140512064099	50359881.243522860110	-25.211528526581	-13.415605952486	-5.926846492215
1701885.825752666686	-74415220.324825540185	116151724.139663591981	50359881.243148013949	-25.211528526485	-13.415605952636	-5.926846492281
1701885.825879157754	-74415220.328014567494	116151724.137966632843	50359881.242398321629	-25.211528526292	-13.415605952936	-5.926846492414
1701885.826132139890	-74415220.334392637014	116151724.134572729468	50359881.240898936987	-25.211528525907	-13.415605953536	-5.926846492678
1701885.826638104394	-74415220.347148776054	116151724.127784907818	50359881.237900160253	-25.211528525137	-13.415605954737	-5.926846493208
1701885.827650033170	-74415220.372661054134	116151724.114209264517	50359881.231902614236	-25.211528523596	-13.415605957137	-5.926846494266
1701885.829673890956	-74415220.423685595393	116151724.087057992816	50359881.219907522202	-25.211528520515	-13.415605961937	-5.926846496384
1701885.833721606294	-74415220.525734692812	116151724.032755434513	50359881.195917330682	-25.211528514352	-13.415605971539	-5.926846500619
1701885.841817037202	-74415220.729832872748	116151723.924150317907	50359881.147936955094	-25.211528502028	-13.415605990741	-5.926846509090
1701885.858007898787	-74415221.138029247522	116151723.706940099597	50359881.051976203918	-25.211528477378	-13.415606029145	-5.926846526031
1701885.890389621956	-74415221.954421982169	116151723.272519662976	50359880.860054701567	-25.211528428079	-13.415606105955	-5.926846559912
1701885.955153068528	-74415223.587207451463	116151722.403678774834	50359880.476211689413	-25.211528329481	-13.415606259573	-5.926846627676
1701886.084679961437	-74415226.852778375149	116151720.665996953845	50359879.708525650203	-25.211528132285	-13.415606566810	-5.926846763203
1701886.343733747257	-74415233.383920133114	116151717.190633207560	50359878.173153519630	-25.211527737894	-13.415607181283	-5.926847034257
1701886.861841319129	-74415246.446203351021	116151710.239905223250	50359875.102409057319	-25.211526949112	-13.415608410231	-5.926847576364
1701887.898056462873	-74415272.570768550038	116151696.338447347283	50359868.960919283330	-25.211525371555	-13.415610868131	-5.926848660581
1701889.970486750128	-74415324.819894045591	116151668.535523965955	50359856.677936360240	-25.211522216463	-13.415615783944	-5.926850829017
1701894.115347324871	-74415429.318125426769	116151612.929646641016	50359832.111957035959	-25.211515906371	-13.415625615628	-5.926855165902
1701902.405068474356	-74415638.314509734511	116151501.717769742012	50359782.979944467545	-25.211503286548	-13.415645279227	-5.926863839721
1701918.984510773327	-74416056.306964516640	116151279.293526917696	50359684.715703614056	-25.211478048356	-13.415684607345	-5.926881187559
1701952.143395371269	-74416892.290618866682	116150834.443085104227	50359488.186359047890	-25.211427577782	-13.415763267264	-5.926915884030
1702018.461164567154	-74418564.252907574177	116149944.734376236796	50359095.124218329787	-25.211326659874	-13.415920601839	-5.926985280155
1702095.782536044717	-74420513.622714012861	116148907.389902964234	50358636.838459514081	-25.211209036544	-13.416104066559	-5.927066196015
1702173.103907522280	-74422462.983427286148	116147870.031242921948	50358178.546443954110	-25.211091455320	-13.416287558007	-5.927147117655
1702250.425278999843	-74424412.335050642490	116146832.658394038677	50357720.248171195388	-25.210973916195	-13.416471076196	-5.927228045079
1702327.746650477406	-74426361.677587345243	116145795.271354243159	50357261.943640790880	-25.210856419158	-13.416654621136	-5.927308978293
1702405.068021954969	-74428311.011040642858	116144757.870121464133	50356803.632852301002	-25.210738964200	-13.416838192840	-5.927389917302
1702482.389393432532	-74430260.335413783789	116143720.454693630338	50356345.315805271268	-25.210621551314	-13.417021791318	-5.927470862111
1702559.710764910094	-74432209.650710016489	116142683.025068670511	50355886.992499254644	-25.210504180490	-13.417205416582	-5.927551812725
1702637.032136387657	-74434158.956932604313	116141645.581244528294	50355428.662933796644	-25.210386851720	-13.417389068644	-5.927632769148
1702659.039348856080	-74434713.766905084252	116141350.301337301731	50355298.212006457150	-25.210353465286	-13.417441344604	-5.927655812032
1702659.039348856080	-74434713.766905084252	116141350.301337853074	50355298.212006650865	-25.210337712654	-13.418847399713	-5.928179303433
1702659.039356761845	-74434713.767104387283	116141350.301231771708	50355298.211959786713	-25.210337712642	-13.418847399732	-5.928179303442
1702659.039372573141	-74434713.767502993345	116141350.301019594073	50355298.211866050959	-25.210337712618	-13.418847399769	-5.928179303458
1702659.039404195966	-74434713.768300220370	116141350.300595253706	50355298.211678586900	-25.210337712571	-13.418847399844	-5.928179303491
1702659.039467441617	-74434713.769894659519	116141350.299746572971	50355298.211303658783	-25.210337712475	-13.418847399995	-5.928179303557
1702659.039593932685	-74434713.773083537817	116141350.298049211502	50355298.210553795099	-25.210337712283	-13.418847400295	-5.928179303690
1702659.039846914820	-74434713.779461309314	116141350.294654488564	50355298.209054067731	-25.210337711899	-13.418847400896	-5.928179303955
